#wavelength,flux_density
9.100000000000001421e+01 2.839901276528293238e+04
9.121124560078533250e+01 2.823486771037264407e+04
9.142298158293164079e+01 2.807167140671910965e+04
9.163520908480052185e+01 2.790941837058148667e+04
9.184792924739619480e+01 2.774810314991460837e+04
9.206114321437151204e+01 2.758772032418598610e+04
9.227485213203418368e+01 2.742826450419357570e+04
9.248905714935294498e+01 2.726973033188466070e+04
9.270375941796373809e+01 2.711211248017581966e+04
9.291896009217583696e+01 2.695540565277399946e+04
9.313466032897824221e+01 2.679960458399837080e+04
9.335086128804562122e+01 2.664470403860364604e+04
9.356756413174474574e+01 2.649069881160394289e+04
9.378477002514067351e+01 2.633758372809799039e+04
9.400248013600297270e+01 2.618535364309528813e+04
9.422069563481220200e+01 2.603400344134300758e+04
9.443941769476589343e+01 2.588352803715438858e+04
9.465864749178508930e+01 2.573392237423766346e+04
9.487838620452055238e+01 2.558518142552623249e+04
9.509863501435918920e+01 2.543730019300970162e+04
9.531939510543026017e+01 2.529027370756601522e+04
9.554066766461201610e+01 2.514409702879430188e+04
9.576245388153773774e+01 2.499876524484910260e+04
9.598475494860237234e+01 2.485427347227518112e+04
9.620757206096884318e+01 2.471061685584346924e+04
9.643090641657447293e+01 2.456779056838789256e+04
9.665475921613756327e+01 2.442578981064317122e+04
9.687913166316364766e+01 2.428460981108359556e+04
9.710402496395204253e+01 2.414424582576266403e+04
9.732944032760241271e+01 2.400469313815365967e+04
9.755537896602112369e+01 2.386594705899124165e+04
9.778184209392784965e+01 2.372800292611376790e+04
9.800883092886220993e+01 2.359085610430664747e+04
9.823634669119005025e+01 2.345450198514670774e+04
9.846439060411022126e+01 2.331893598684722383e+04
9.869296389366104449e+01 2.318415355410401025e+04
9.892206778872693462e+01 2.305015015794235660e+04
9.915170352104512119e+01 2.291692129556475265e+04
9.938187232521205772e+01 2.278446249019973766e+04
9.961257543869018605e+01 2.265276929095136802e+04
9.984381410181455863e+01 2.252183727264971094e+04
1.000755895577995176e+02 2.239166203570210200e+04
1.003079030527455302e+02 2.226223920594526135e+04
1.005407558356453848e+02 2.213356443449855578e+04
1.007741491583916087e+02 2.200563339761752286e+04
1.010080842757828066e+02 2.187844179654876643e+04
1.012425624455301261e+02 2.175198535738566352e+04
1.014775849282648181e+02 2.162625983092435126e+04
1.017131529875440350e+02 2.150126099252142376e+04
1.019492678898586178e+02 2.137698464195147972e+04
1.021859309046389797e+02 2.125342660326647092e+04
1.024231433042626236e+02 2.113058272465500704e+04
1.026609063640608071e+02 2.100844887830293010e+04
1.028992213623249512e+02 2.088702096025488572e+04
1.031380895803142863e+02 2.076629489027595628e+04
1.033775123022619624e+02 2.064626661171502928e+04
1.036174908153826095e+02 2.052693209136808946e+04
1.038580264098789456e+02 2.040828731934287498e+04
1.040991203789484842e+02 2.029032830892429047e+04
1.043407740187911088e+02 2.017305109644004187e+04
1.045829886286152828e+02 2.005645174112792665e+04
1.048257655106457236e+02 1.994052632500302207e+04
1.050691059701301526e+02 1.982527095272614679e+04
1.053130113153458751e+02 1.971068175147320289e+04
1.055574828576076953e+02 1.959675487080464154e+04
1.058025219112740416e+02 1.948348648253645661e+04
1.060481297937547396e+02 1.937087278061128018e+04
1.062943078255178762e+02 1.925890998097054398e+04
1.065410573300965211e+02 1.914759432142752121e+04
1.067883796340965574e+02 1.903692206154060841e+04
1.070362760672030475e+02 1.892688948248793895e+04
1.072847479621880353e+02 1.881749288694215647e+04
1.075337966549174809e+02 1.870872859894627982e+04
1.077834234843580248e+02 1.860059296379035368e+04
1.080336297925850175e+02 1.849308234788830305e+04
1.082844169247888431e+02 1.838619313865619188e+04
1.085357862292830191e+02 1.827992174439047085e+04
1.087877390575105636e+02 1.817426459414769124e+04
1.090402767640520381e+02 1.806921813762415695e+04
1.092934007066325393e+02 1.796477884503674795e+04
1.095471122461285489e+02 1.786094320700450771e+04
1.098014127465761902e+02 1.775770773443033249e+04
1.100563035751775374e+02 1.765506895838415949e+04
1.103117861023087869e+02 1.755302342998604945e+04
1.105678617015273488e+02 1.745156772029040440e+04
1.108245317495787958e+02 1.735069842017097471e+04
1.110817976264051339e+02 1.725041214020587358e+04
1.113396607151512683e+02 1.715070551056415570e+04
1.115981224021732459e+02 1.705157518089218502e+04
1.118571840770453889e+02 1.695301782020123574e+04
1.121168471325674147e+02 1.685503011675566813e+04
1.123771129647726923e+02 1.675760877796138084e+04
1.126379829729348643e+02 1.666075053025546731e+04
1.128994585595761748e+02 1.656445211899598144e+04
1.131615411304746317e+02 1.646871030835262354e+04
1.134242320946712681e+02 1.637352188119820858e+04
1.136875328644784986e+02 1.627888363900021614e+04
1.139514448554867556e+02 1.618479240171369383e+04
1.142159694865731012e+02 1.609124500767402606e+04
1.144811081799078636e+02 1.599823831349105603e+04
1.147468623609631209e+02 1.590576919394316064e+04
1.150132334585200056e+02 1.581383454187235293e+04
1.152802229046760800e+02 1.572243126808001398e+04
1.155478321348537492e+02 1.563155630122279945e+04
1.158160625878071954e+02 1.554120658770974660e+04
1.160849157056307774e+02 1.545137909159939409e+04
1.163543929337665332e+02 1.536207079449790945e+04
1.166244957210115700e+02 1.527327869545774774e+04
1.168952255195266901e+02 1.518499981087653759e+04
1.171665837848431977e+02 1.509723117439719317e+04
1.174385719758716249e+02 1.500996983680789526e+04
1.177111915549091918e+02 1.492321286594315097e+04
1.179844439876472819e+02 1.483695734658537913e+04
1.182583307431802240e+02 1.475120038036665937e+04
1.185328532940121704e+02 1.466593908567167455e+04
1.188080131160658510e+02 1.458117059754060574e+04
1.190838116886902327e+02 1.449689206757297507e+04
1.193602504946680085e+02 1.441310066383204321e+04
1.196373310202244653e+02 1.432979357074939617e+04
1.199150547550345038e+02 1.424696798903062881e+04
1.201934231922314922e+02 1.416462113556103031e+04
1.204724378284149253e+02 1.408275024331216810e+04
1.207521001636581133e+02 1.400135256124901753e+04
1.210324117015170913e+02 1.392042535423728077e+04
1.213133739490377110e+02 1.383996590295175520e+04
1.215949884167646644e+02 1.375997150378471451e+04
1.218772566187491577e+02 1.368043946875516303e+04
1.221601800725567273e+02 1.360136712541862289e+04
1.224437602992762351e+02 1.352275181677709770e+04
1.227279988235270878e+02 1.344459090119006396e+04
1.230128971734684313e+02 1.336688175228540240e+04
1.232984568808062988e+02 1.328962175887147896e+04
1.235846794808028051e+02 1.321280832484911298e+04
1.238715665122840051e+02 1.313643886912446942e+04
1.241591195176477385e+02 1.306051082552242042e+04
1.244473400428728809e+02 1.298502164270008325e+04
1.247362296375265629e+02 1.290996878406137330e+04
1.250257898547734783e+02 1.283534972767149702e+04
1.253160222513837567e+02 1.276116196617236164e+04
1.256069283877410641e+02 1.268740300669836688e+04
1.258985098278517398e+02 1.261407037079245492e+04
1.261907681393523433e+02 1.254116159432305903e+04
1.264837048935188619e+02 1.246867422740109942e+04
1.267773216652747976e+02 1.239660583429774306e+04
1.270716200331992809e+02 1.232495399336265655e+04
1.273666015795364501e+02 1.225371629694242074e+04
1.276622678902029122e+02 1.218289035129985859e+04
1.279586205547972781e+02 1.211247377653339208e+04
1.282556611666077515e+02 1.204246420649725951e+04
1.285533913226215077e+02 1.197285928872185286e+04
1.288518126235329646e+02 1.190365668433473184e+04
1.291509266737519681e+02 1.183485406798211261e+04
1.294507350814133417e+02 1.176644912775054581e+04
1.297512394583844184e+02 1.169843956508946758e+04
1.300524414202747323e+02 1.163082309473373971e+04
1.303543425864442895e+02 1.156359744462694289e+04
1.306569445800117819e+02 1.149676035584515557e+04
1.309602490278643643e+02 1.143030958252080927e+04
1.312642575606652429e+02 1.136424289176747334e+04
1.315689718128634240e+02 1.129855806360460883e+04
1.318743934227021271e+02 1.123325289088307545e+04
1.321805240322270834e+02 1.116832517921104409e+04
1.324873652872964556e+02 1.110377274688004945e+04
1.327949188375884546e+02 1.103959342479193401e+04
1.331031863366112873e+02 1.097578505638574461e+04
1.334121694417115407e+02 1.091234549756535125e+04
1.337218698140827655e+02 1.084927261662748970e+04
1.340322891187752816e+02 1.078656429418993866e+04
1.343434290247040792e+02 1.072421842312053377e+04
1.346552912046587664e+02 1.066223290846614509e+04
1.349678773353121244e+02 1.060060566738238958e+04
1.352811890972287472e+02 1.053933462906370551e+04
1.355952281748749044e+02 1.047841773467360690e+04
1.359099962566267550e+02 1.041785293727567660e+04
1.362254950347800957e+02 1.035763820176464287e+04
1.365417262055592857e+02 1.029777150479804004e+04
1.368586914691258016e+02 1.023825083472830920e+04
1.371763925295883553e+02 1.017907419153504998e+04
1.374948310950111079e+02 1.012023958675795438e+04
1.378140088774237029e+02 1.006174504342986256e+04
1.381339275928296217e+02 1.000358859601047334e+04
1.384545889612161886e+02 9.945768290320160304e+03
1.387759947065634663e+02 9.888282183474373596e+03
1.390981465568531519e+02 9.831128343818418216e+03
1.394210462440787808e+02 9.774304850862381500e+03
1.397446955042539685e+02 9.717809795216793646e+03
1.400690960774226426e+02 9.661641278528315524e+03
1.403942497076681377e+02 9.605797413415977644e+03
1.407201581431218926e+02 9.550276323407902964e+03
1.410468231359741651e+02 9.495076142878000610e+03
1.413742464424819900e+02 9.440195016983545429e+03
1.417024298229798660e+02 9.385631101602641138e+03
1.420313750418886798e+02 9.331382563272321931e+03
1.423610838677247443e+02 9.277447579127050631e+03
1.426915580731103717e+02 9.223824336837267765e+03
1.430227994347822573e+02 9.170511034548691896e+03
1.433548097336020817e+02 9.117505880821592655e+03
1.436875907545650932e+02 9.064807094570771369e+03
1.440211442868105394e+02 9.012412905005558059e+03
1.443554721236310172e+02 8.960321551570374140e+03
1.446905760624815400e+02 8.908531283885648008e+03
1.450264579049903091e+02 8.857040361688828852e+03
1.453631194569672402e+02 8.805847054776093501e+03
1.457005625284145935e+02 8.754949642944069637e+03
1.460387889335363525e+02 8.704346415932077434e+03
1.463778004907475463e+02 8.654035673364727700e+03
1.467175990226849933e+02 8.604015724694649180e+03
1.470581863562159697e+02 8.554284889145848865e+03
1.473995643224490664e+02 8.504841495657066844e+03
1.477417347567435399e+02 8.455683882825722321e+03
1.480846994987187486e+02 8.406810398852123399e+03
1.484284603922652082e+02 8.358219401483818729e+03
1.487730192855530902e+02 8.309909257960604009e+03
1.491183780310433633e+02 8.261878344959479364e+03
1.494645384854972860e+02 8.214125048540186981e+03
1.498115025099858713e+02 8.166647764091044337e+03
1.501592719699010559e+02 8.119444896274848361e+03
1.505078487349643410e+02 8.072514858975490824e+03
1.508572346792381609e+02 8.025856075244449130e+03
1.512074316811352332e+02 7.979466977247922841e+03
1.515584416234284220e+02 7.933346006214166664e+03
1.519102663932617645e+02 7.887491612380993502e+03
1.522629078821595101e+02 7.841902254943852313e+03
1.526163679860372895e+02 7.796576402003919611e+03
1.529706486052119203e+02 7.751512530516668448e+03
1.533257516444110422e+02 7.706709126240780279e+03
1.536816790127845707e+02 7.662164683687087745e+03
1.540384326239136499e+02 7.617877706068178668e+03
1.543960143958221636e+02 7.573846705247919999e+03
1.547544262509858584e+02 7.530070201691623879e+03
1.551136701163437692e+02 7.486546724416183679e+03
1.554737479233080535e+02 7.443274810940717543e+03
1.558346616077739384e+02 7.400253007237474776e+03
1.561964131101312887e+02 7.357479867682841359e+03
1.565590043752736449e+02 7.314953955008923913e+03
1.569224373526098759e+02 7.272673840255122741e+03
1.572867139960742406e+02 7.230638102720155985e+03
1.576518362641362216e+02 7.188845329914404829e+03
1.580178061198124055e+02 7.147294117512294179e+03
1.583846255306756063e+02 7.105983069305257231e+03
1.587522964688667457e+02 7.064910797154696411e+03
1.591208209111041754e+02 7.024075920945457256e+03
1.594902008386955004e+02 6.983477068539335960e+03
1.598604382375476973e+02 6.943112875729022562e+03
1.602315350981772326e+02 6.902981986192333352e+03
1.606034934157219993e+02 6.863083051446486934e+03
1.609763151899507818e+02 6.823414730802943268e+03
1.613500024252749654e+02 6.783975691322237253e+03
1.617245571307589955e+02 6.744764607769232498e+03
1.620999813201306381e+02 6.705780162568643391e+03
1.624762770117929165e+02 6.667021045760648121e+03
1.628534462288336897e+02 6.628485954956999194e+03
1.632314909990376464e+02 6.590173595297148495e+03
1.636104133548967923e+02 6.552082679404784358e+03
1.639902153336207675e+02 6.514211927344622381e+03
1.643708989771490394e+02 6.476560066579284467e+03
1.647524663321605090e+02 6.439125831926668980e+03
1.651349194500856754e+02 6.401907965517325465e+03
1.655182603871172944e+02 6.364905216752223168e+03
1.659024912042206950e+02 6.328116342260800593e+03
1.662876139671462283e+02 6.291540105859050527e+03
1.666736307464389597e+02 6.255175278508126212e+03
1.670605436174509748e+02 6.219020638272915676e+03
1.674483546603520665e+02 6.183074970281044443e+03
1.678370659601403077e+02 6.147337066682097429e+03
1.682266796066546419e+02 6.111805726606910866e+03
1.686171976945845188e+02 6.076479756127363544e+03
1.690086223234825411e+02 6.041357968216135305e+03
1.694009555977751802e+02 6.006439182706873908e+03
1.697941996267735476e+02 5.971722226254577436e+03
1.701883565246859575e+02 5.937205932296074934e+03
1.705834284106278744e+02 5.902889141010938147e+03
1.709794174086346175e+02 5.868770699282398709e+03
1.713763256476721892e+02 5.834849460658659154e+03
1.717741552616481897e+02 5.801124285314404005e+03
1.721729083894244923e+02 5.767594040012405458e+03
1.725725871748274756e+02 5.734257598065550155e+03
1.729731937666607848e+02 5.701113839298869607e+03
1.733747303187155637e+02 5.668161650012019891e+03
1.737771989897832725e+02 5.635399922941746809e+03
1.741806019436667441e+02 5.602827557224733937e+03
1.745849413491912401e+02 5.570443458360649856e+03
1.749902193802174679e+02 5.538246538175270871e+03
1.753964382156517559e+02 5.506235714784021184e+03
1.758036000394590417e+02 5.474409912555541268e+03
1.762117070406740424e+02 5.442768062075564558e+03
1.766207614134125663e+02 5.411309100111037878e+03
1.770307653568844728e+02 5.380031969574293726e+03
1.774417210754041605e+02 5.348935619487635449e+03
1.778536307784037547e+02 5.318019004947925168e+03
1.782664966804435949e+02 5.287281087091567315e+03
1.786803210012254226e+02 5.256720833059513097e+03
1.790951059656037216e+02 5.226337215962598748e+03
1.795108538035972003e+02 5.196129214847063849e+03
1.799275667504019793e+02 5.166095814660180622e+03
1.803452470464021928e+02 5.136236006216218811e+03
1.807638969371833468e+02 5.106548786162464239e+03
1.811835186735437730e+02 5.077033156945536575e+03
1.816041145115062250e+02 5.047688126777910838e+03
1.820256867123312361e+02 5.018512709604500742e+03
1.824482375425279201e+02 4.989505925069624027e+03
1.828717692738673293e+02 4.960666798483968705e+03
1.832962841833941354e+02 4.931994360791895815e+03
1.837217845534384253e+02 4.903487648538895883e+03
1.841482726716290870e+02 4.875145703839133603e+03
1.845757508309047807e+02 4.846967574343364504e+03
1.850042213295274678e+02 4.818952313206845247e+03
1.854336864710943473e+02 4.791098979057546785e+03
1.858641485645494527e+02 4.763406635964577617e+03
1.862956099241975494e+02 4.735874353406627961e+03
1.867280728697150778e+02 4.708501206240813190e+03
1.871615397261638520e+02 4.681286274671493629e+03
1.875960128240030542e+02 4.654228644219415401e+03
1.880314944991011714e+02 4.627327405691004060e+03
1.884679870927498939e+02 4.600581655147741913e+03
1.889054929516751429e+02 4.573990493875879110e+03
1.893440144280511106e+02 4.547553028356162940e+03
1.897835538795122829e+02 4.521268370233833593e+03
1.902241136691654901e+02 4.495135636288825481e+03
1.906656961656040323e+02 4.469153948405998563e+03
1.911083037429187925e+02 4.443322433545727108e+03
1.915519387807125042e+02 4.417640223714478452e+03
1.919966036641117739e+02 4.392106455935687336e+03
1.924423007837794160e+02 4.366720272220787592e+03
1.928890325359287203e+02 4.341480819540310222e+03
1.933368013223346793e+02 4.316387249795294338e+03
1.937856095503485108e+02 4.291438719788714479e+03
1.942354596329089702e+02 4.266634391197235345e+03
1.946863539885568457e+02 4.241973430542955612e+03
1.951382950414472361e+02 4.217455009165441879e+03
1.955912852213619999e+02 4.193078303193913598e+03
1.960453269637243068e+02 4.168842493519484378e+03
1.965004227096099783e+02 4.144746765767728903e+03
1.969565749057621815e+02 4.120790310271230737e+03
1.974137860046038782e+02 4.096972322042417545e+03
1.978720584642504434e+02 4.073292000746547728e+03
1.983313947485242750e+02 4.049748550674729813e+03
1.987917973269663889e+02 4.026341180717284715e+03
1.992532686748514266e+02 4.003069104337062981e+03
1.997158112731991935e+02 3.979931539543115377e+03
2.001794276087895810e+02 3.956927708864325268e+03
2.006441201741751570e+02 3.934056839323335680e+03
2.011098914676941263e+02 3.911318162410588684e+03
2.015767439934850245e+02 3.888710914058438902e+03
2.020446802614986836e+02 3.866234334615559419e+03
2.025137027875130684e+02 3.843887668821346324e+03
2.029838140931462078e+02 3.821670165780567913e+03
2.034550167058692125e+02 3.799581078938162591e+03
2.039273131590211676e+02 3.777619666054085428e+03
2.044007059918212121e+02 3.755785189178448491e+03
2.048751977493835739e+02 3.734076914626649796e+03
2.053507909827307003e+02 3.712494112954753746e+03
2.058274882488062758e+02 3.691036058935006622e+03
2.063052921104904840e+02 3.669702031531402554e+03
2.067842051366120302e+02 3.648491313875528249e+03
2.072642299019635459e+02 3.627403193242413636e+03
2.077453689873147198e+02 3.606436961026603967e+03
2.082276249794255136e+02 3.585591912718384265e+03
2.087110004710616522e+02 3.564867347880036505e+03
2.091954980610067594e+02 3.544262570122379202e+03
2.096811203540778763e+02 3.523776887081303357e+03
2.101678699611387913e+02 3.503409610394532592e+03
2.106557494991135400e+02 3.483160055678520621e+03
2.111447615910018101e+02 3.463027542505396013e+03
2.116349088658913900e+02 3.443011394380163892e+03
2.121261939589739427e+02 3.423110938717914905e+03
2.126186195115583075e+02 3.403325506821251565e+03
2.131121881710841706e+02 3.383654433857844651e+03
2.136069025911378390e+02 3.364097058838028715e+03
2.141027654314647179e+02 3.344652724592670438e+03
2.145997793579851134e+02 3.325320777751013793e+03
2.150979470428080162e+02 3.306100568718761224e+03
2.155972711642446882e+02 3.286991451656263962e+03
2.160977544068246345e+02 3.267992784456766458e+03
2.165993994613083657e+02 3.249103928724896377e+03
2.171022090247034555e+02 3.230324249755144137e+03
2.176061858002774443e+02 3.211653116510604832e+03
2.181113324975738124e+02 3.193089901601713791e+03
2.186176518324259632e+02 3.174633981265189959e+03
2.191251465269710934e+02 3.156284735343100238e+03
2.196338193096663645e+02 3.138041547261970663e+03
2.201436729153019201e+02 3.119903804012117234e+03
2.206547100850169727e+02 3.101870896127011747e+03
2.211669335663139861e+02 3.083942217662811800e+03
2.216803461130728010e+02 3.066117166178025400e+03
2.221949504855669204e+02 3.048395142713215137e+03
2.227107494504765555e+02 3.030775551770937454e+03
2.232277457809053942e+02 3.013257801295666013e+03
2.237459422563936187e+02 2.995841302653956518e+03
2.242653416629344747e+02 2.978525470614623373e+03
2.247859467929885682e+02 2.961309723329086864e+03
2.253077604454981326e+02 2.944193482311852222e+03
2.258307854259037697e+02 2.927176172421014144e+03
2.263550245461576651e+02 2.910257221838992791e+03
2.268804806247403008e+02 2.893436062053266596e+03
2.274071564866748645e+02 2.876712127837290154e+03
2.279350549635418588e+02 2.860084857231529895e+03
2.284641788934958981e+02 2.843553691524517944e+03
2.289945311212790955e+02 2.827118075234146090e+03
